"Time (s)","X (µT)","Y (µT)","Z (µT)"
0.00000000,21.36874962,66.25000000,67.38124847
0.02007200,19.56250000,65.78749847,67.34999847
0.04013400,17.95000076,65.23124695,67.66874695
0.06019200,15.83125019,65.01249695,68.38749695
0.08025000,15.83125019,65.01249695,68.38749695
0.10030700,11.53125000,63.97499847,68.38749695
0.12036500,9.84375000,63.37500000,68.46875000
0.14042300,7.73124981,62.84999847,69.08125305
0.16048100,5.49375010,62.18125153,68.33125305
0.18054200,3.41249990,62.04375076,68.13124847
0.20059900,0.89999998,61.51250076,67.96250153
0.22065700,-1.31250000,61.42499924,66.83750153
0.24071400,-4.02500010,60.93750000,66.19374847
0.26077000,-6.04374981,60.65000153,65.00624847
0.28099600,-8.01875019,60.36875153,64.43750000
0.30106100,-9.73124981,60.65000153,63.15625000
0.32111800,-11.30000019,60.81874847,62.90000153
0.34120700,-12.42500019,60.98125076,61.71250153
0.36126300,-13.26875019,61.32500076,61.65625000
0.38132800,-14.11250019,61.60625076,60.75624847
0.40144700,-15.05624962,61.95624924,60.26250076
0.42150800,-15.64375019,62.26874924,59.59999847
0.44156400,-16.12500000,62.84999847,59.16249847
0.46162400,-16.23125076,63.60625076,58.82500076
0.48168000,-16.45000076,64.03125000,58.39374924
0.50173700,-16.22500038,64.60624695,58.92499924
0.52179400,-15.87500000,64.40000153,58.59999847
0.54187400,-15.91874981,65.06250000,58.95000076
0.56193000,-15.56875038,64.84999847,58.30625153
0.58198600,-15.13749981,65.05000305,58.22499847
0.60204100,-14.72500038,65.46250153,58.41875076
0.62210300,-14.68124962,65.77500153,59.06250000
0.64216500,-14.28125000,65.85624695,59.71875000
0.66222600,-14.02499962,65.51875305,58.52500153
0.68228200,-13.86874962,66.05625153,59.43750000
0.70233800,-13.10624981,66.93750000,59.62500000
0.72239400,-12.85624981,66.56874847,59.71875000
0.74245500,-12.37500000,66.76249695,60.48125076
0.76251100,-11.51875019,67.20625305,60.63750076
0.78256900,-11.03125000,67.26249695,60.51874924
0.80262600,-10.87500000,67.25000000,60.59999847
0.82268200,-10.70625019,67.31874847,60.68750000
0.84274200,-10.39375019,67.91249847,60.93125153
0.86280200,-9.80624962,67.64375305,61.38124847
0.88286000,-8.77499962,67.63749695,61.62500000
0.90291700,-8.28750038,67.48750305,62.06874847
0.92297300,-7.61250019,67.28125000,62.35625076
0.94303900,-7.09375000,67.43125153,62.40625000
0.96309700,-6.23750019,67.75000000,62.82500076
0.98315400,-5.13124990,68.03125000,63.04999924
1.00321500,-3.84375000,68.07499695,63.79999924
1.02327300,-2.40625000,67.95625305,63.95624924
1.04333400,-1.23125005,68.38749695,64.44374847
1.06339600,-0.18750000,67.88124847,64.80000305
1.08345500,0.58749998,67.91249847,65.06874847
1.10351100,1.42499995,67.97499847,65.51875305
1.12356800,2.43125010,67.53125000,65.57499695
1.14363000,3.58750010,67.22499847,66.14375305
1.16368700,4.59999990,67.50000000,66.17500305
1.18374400,5.41874981,66.97499847,66.12500000
1.20380000,6.22499990,66.47499847,66.70625305
1.22385600,7.03125000,66.19374847,66.75000000
1.24391300,7.48124981,66.14375305,66.93125153
1.26397400,7.84999990,65.43125153,67.17500305
1.28403400,8.95625019,64.84375000,67.19374847
1.30409900,9.41250038,64.15000153,67.18125153
1.32416800,10.86874962,63.30625153,66.61250305
1.34425100,11.76249981,62.87500000,67.34999847
1.36430700,12.74374962,62.46875000,68.01875305
1.38436300,14.16874981,61.85625076,68.00000000
1.40442000,16.80624962,61.08124924,67.68750000
1.42448600,16.80624962,61.08124924,67.68750000
1.44456100,18.97500038,60.31250000,67.55000305
1.46461800,20.01250076,59.98125076,67.80625153
1.48467400,21.50625038,59.54999924,67.06874847
1.50473000,22.95624924,58.41249847,66.76875305
1.52478700,24.95000076,58.36875153,66.38124847
1.54486400,26.18750000,57.88124847,66.01875305
1.56492100,27.66875076,57.63124847,65.08125305
1.58497900,28.93124962,57.54999924,65.11875153
1.60503500,30.68750000,56.95000076,64.00000000
1.62510000,32.41875076,56.08750153,63.23749924
1.64516200,33.75000000,55.66875076,62.37500000
1.66522000,35.23125076,55.00000000,61.98749924
1.68527700,36.13124847,55.07500076,60.89374924
1.70533300,37.40000153,54.45000076,60.38750076
1.72539500,38.90625000,53.85625076,59.02500153
1.74546000,40.27500153,53.67499924,58.33750153
1.76551700,41.36875153,53.84375000,57.22499847
1.78557300,42.90625000,52.96250153,55.84375000
1.80562900,44.13750076,52.82500076,54.54375076
1.82568400,45.44374847,52.91875076,53.74375153
1.84576200,46.60625076,52.54375076,52.17499924
1.86585700,48.03125000,52.39374924,50.91875076
1.88591600,48.86249924,52.25624847,49.23749924
1.90597300,49.88124847,51.93750000,48.91249847
1.92603000,50.30625153,52.28749847,47.11249924
1.94609400,51.20624924,52.18125153,46.13124847
1.96615500,52.01250076,52.53125000,44.98125076
1.98621200,52.96250153,52.48749924,43.20624924
2.00631500,53.90000153,52.41249847,42.25000000
2.02637200,54.42499924,52.47499847,40.56250000
2.04644000,55.21875000,52.16875076,38.34375000
2.06649700,55.86249924,52.68125153,37.73125076
2.08655400,56.46875000,53.20000076,36.20624924
2.10666300,56.66875076,53.44374847,35.10625076
2.12672800,57.22499847,53.51874924,33.73749924
2.14925000,57.63124847,54.21250153,31.66875076
2.16931500,58.09999847,54.19374847,30.70000076
2.18937900,58.26250076,55.11875153,30.25625038
2.20943700,58.50000000,55.27500153,28.99374962
2.22949200,58.58750153,55.50000000,28.13750076
2.24955900,58.86875153,56.29999924,27.37500000
2.26961400,59.08124924,56.40625000,26.59375000
2.28967200,59.11249924,57.56874847,25.96875000
2.30972800,58.83750153,57.95000076,25.16250038
2.32979200,59.40625000,58.42499924,23.66250038
2.34987800,59.21875000,58.86875153,23.52499962
2.36994500,59.01874924,59.47499847,22.32500076
2.39000300,58.95000076,60.51250076,21.02499962
2.41006000,59.15000153,60.67499924,20.70624924
2.43011600,58.73749924,61.26250076,20.64374924
2.45021300,59.19374847,61.71875000,21.00000000
2.47027100,58.98749924,62.38124847,20.45624924
2.49032600,59.00624847,62.59375000,20.73125076
2.51038200,58.75624847,62.61875153,20.81875038
2.53043800,58.92499924,62.91249847,20.01874924
2.55050700,58.98125076,63.15000153,20.52499962
2.57056400,58.40000153,63.25624847,19.84375000
2.59062100,58.86875153,63.08750153,20.18124962
2.61067900,58.11249924,63.72499847,20.67499924
2.63073900,58.53125000,64.06874847,20.88125038
2.65080600,58.55625153,64.43750000,21.58124924
2.67086400,58.64374924,64.31250000,21.85000038
2.69092100,58.33124924,65.55000305,22.63750076
2.71097700,58.30625153,66.03749847,23.79375076
2.73103300,57.96875000,66.51249695,24.81875038
2.75111000,57.98749924,66.64375305,25.98125076
2.77117600,57.98749924,66.64375305,25.98125076
2.79123400,57.16875076,68.26875305,28.19375038
2.81129600,56.89374924,68.59375000,29.63125038
2.83135300,56.61249924,68.72499847,30.89374924
2.85142400,56.16249847,69.28749847,31.95000076
2.87148200,55.84999847,69.62500000,32.75624847
2.89153800,55.30625153,70.09999847,34.45624924
2.91159400,54.88750076,70.20625305,35.90000153
2.93165000,54.16875076,70.67500305,37.62500000
2.95171100,53.25000000,70.86250305,39.45624924
2.97177200,52.66249847,71.09375000,40.70624924
2.99183000,51.71250153,71.54374695,42.10625076
3.01188700,50.45624924,71.38124847,44.21875000
3.03194400,49.57500076,71.78125000,46.31250000
3.05201000,47.76250076,72.00000000,47.51250076
3.07206600,47.09375000,72.12500000,49.04375076
3.09212300,46.01250076,71.98124695,50.62500000
3.11217900,45.20000076,71.94374847,51.41249847
3.13223400,44.17499924,71.69374847,53.13124847
3.15229600,42.84999847,72.02500153,53.71875000
3.17235300,41.94374847,72.01249695,54.87500000
3.19240900,40.53125000,71.75624847,55.86875153
3.21246500,39.48749924,72.05625153,57.17499924
3.23252100,37.88124847,71.54374695,58.56250000
3.25258500,36.74375153,71.30625153,59.63124847
3.27264300,35.13124847,71.28749847,60.45000076
3.29270100,33.46875000,71.09999847,61.48749924
3.31276000,32.03125000,70.66874695,62.24375153
3.33281700,29.68750000,70.53749847,63.40625000
3.35287800,28.19375038,69.71875000,64.02500153
3.37294400,26.76874924,69.79374695,64.71875000
3.39301100,24.93750000,69.31250000,65.15625000
3.41306800,23.25625038,68.55625153,65.46250153
3.43312300,22.31875038,68.63749695,66.09375000
3.45321900,20.39374924,68.64375305,67.07499695
3.47327600,18.67499924,68.36250305,67.13749695
3.49333200,16.50000000,67.27500153,68.07499695
3.51338800,16.50000000,67.27500153,68.07499695
3.53344400,10.01875019,66.33750153,68.58750153
3.55351100,7.91249990,65.99375153,68.05000305
3.57356800,6.56874990,65.96250153,68.04374695
3.59362500,4.81250000,66.03125000,68.26249695
3.61368100,2.88750005,65.58750153,67.63124847
3.63373900,1.06875002,65.60624695,67.14375305
3.65380300,-0.21875000,65.63749695,66.68750000
3.67386100,-1.63750005,65.05000305,66.34375000
3.69391800,-2.71250010,65.07499695,66.16249847
3.71397500,-4.23750019,64.97499847,65.76249695
3.73403300,-5.08750010,64.93125153,65.65625000
3.75409400,-6.15000010,65.38749695,64.75624847
3.77416700,-6.17500019,65.60624695,64.69999695
3.79438100,-6.59375000,65.88749695,64.36250305
3.81443900,-6.98124981,66.23124695,64.15625000
3.83449500,-7.22499990,66.59375000,63.87500000
3.85458300,-7.41874981,66.78125000,63.59375000
3.87464000,-7.42500019,67.24375153,63.29999924
3.89469600,-7.54374981,67.54374695,63.29999924
3.91475200,-7.81250000,67.50000000,63.04375076
3.93480800,-7.52500010,68.04374695,63.03125000
3.95487800,-7.45625019,67.90000153,63.23749924
3.97493700,-7.24375010,68.50000000,62.74375153
3.99499800,-6.88749981,68.78749847,62.76250076
4.02606900,-6.38124990,69.73750305,63.12500000
4.04613000,-5.81874990,69.79374695,63.20000076
4.06618800,-5.41874981,70.19374847,62.81874847
4.08624700,-5.00624990,70.76875305,63.18125153
4.10630600,-4.95625019,71.25000000,62.81250000
4.12636200,-5.08750010,71.78749847,62.82500076
4.14641800,-4.76875019,72.10624695,62.35625076
4.16647500,-4.83750010,72.24375153,62.25624847
4.18653700,-4.45625019,72.47499847,62.82500076
4.20659500,-4.80000019,72.55000305,61.81874847
4.22665300,-4.63749981,73.24375153,62.07500076
4.24670900,-4.53749990,73.58750153,62.29999924
4.26677400,-4.26249981,73.73124695,62.04375076
4.28683200,-3.55625010,74.03125000,61.81250000
4.30689100,-3.24375010,74.07499695,61.95000076
4.32694800,-2.75624990,73.82499695,62.31874847
4.34700600,-1.79999995,73.98750305,62.34999847
4.36706800,-0.49375001,74.02500153,62.95624924
4.38713100,0.23750000,73.50000000,63.32500076
4.40719500,1.54375005,73.02500153,64.15000153
4.42726800,2.90625000,72.84375000,64.58750153
4.44732500,4.59375000,71.91249847,64.49375153
4.46741400,5.99375010,71.09999847,64.36250305
4.48747000,7.36250019,71.10624695,64.65000153
4.50752700,8.30624962,70.78125000,65.59375000
4.52758300,9.18750000,70.94374847,66.23750305
4.54763900,9.81875038,70.08750153,66.01249695
4.56770600,9.81875038,70.08750153,66.01249695
4.58776300,12.56250000,68.67500305,66.90625000
4.60781900,13.71249962,68.58750153,66.65625000
4.62788200,15.19999981,67.54374695,66.94374847
4.64794900,16.23125076,67.37500000,67.15000153
4.66803500,17.49374962,66.60624695,67.52500153
4.68809100,19.39374924,65.78125000,66.76249695
4.70815600,20.61874962,65.02500153,67.31874847
4.72821500,21.88125038,64.03125000,66.43125153
4.74827500,23.33749962,63.81250000,65.99375153
4.76834200,25.01250076,62.94374847,65.87500000
4.78845500,27.13125038,62.29375076,65.13124847
4.80851800,29.02499962,61.38124847,64.75000000
4.82858600,30.49374962,60.99375153,63.95624924
4.84864700,31.69375038,60.57500076,63.73749924
4.86871100,33.28749847,59.43125153,62.83750153
4.88876800,34.69374847,59.58124924,62.12500000
4.90882400,36.41875076,58.91875076,61.54999924
4.92888200,37.58750153,58.03125000,60.73749924
4.94893800,38.56250000,57.34375000,60.13124847
4.96901500,39.40000153,56.92499924,59.31250000
4.98907600,40.29999924,56.58124924,58.85625076
5.00913900,41.23125076,56.25000000,57.99375153
5.02919700,42.34999847,55.34999847,57.21875000
5.04925800,43.33750153,55.25000000,56.16249847
5.06932400,44.30625153,54.73749924,54.78749847
5.08938100,45.50000000,54.16249847,53.81874847
5.10945200,46.58124924,53.84999847,52.54375076
5.12952200,47.45624924,53.84375000,50.90625000
5.15149000,48.71875000,53.29375076,49.96250153
5.17174900,49.41249847,52.86875153,49.08750153
5.19182600,49.41249847,52.86875153,49.08750153
5.21222500,52.36249924,52.31874847,44.94374847
5.23229200,53.13750076,52.05625153,42.91249847
5.25235600,53.80625153,52.08124924,41.72499847
5.27243500,54.37500000,52.45624924,40.25624847
5.29249100,54.91249847,52.79999924,39.73749924
5.31254800,55.35625076,52.79375076,38.27500153
5.33260500,56.01874924,52.71875000,37.33750153
5.35266000,56.38124847,53.24375153,36.36249924
5.37271900,56.78125000,52.96875000,35.15625000
5.39277500,57.00000000,53.65625000,34.18750000
5.41283100,57.15000153,53.64374924,33.39374924
5.43289200,57.63124847,53.86875153,32.66875076
5.45295700,57.31874847,54.17499924,32.28125000
5.47301300,57.54999924,54.68750000,31.64999962
5.49306800,57.82500076,54.78749847,30.67499924
5.51312700,58.20624924,55.05625153,29.45000076
5.53318400,58.21875000,55.72499847,29.06250000
5.55324200,58.50000000,56.01874924,28.60625076
5.57329900,58.54375076,56.72499847,28.48125076
5.59335700,58.70000076,57.03749847,27.39374924
5.61341200,58.56874847,57.11249924,26.61874962
5.63346600,58.70000076,58.11875153,25.86874962
5.65352200,58.93750000,58.65625000,25.50625038
5.67357800,58.97499847,58.93125153,25.36874962
5.69363500,58.65625000,59.32500076,25.74374962
5.71369000,58.98749924,59.87500000,25.90625000
5.73374700,58.58750153,60.25000000,26.45000076
5.75380300,58.20000076,60.83750153,27.01250076
5.77386000,58.41249847,61.39374924,27.20624924
5.79391700,58.29375076,61.78749847,28.13750076
5.81397200,58.57500076,61.84375000,28.03125000
5.83403600,58.43750000,62.08750153,27.95624924
5.85410000,58.04375076,62.33124924,29.11874962
5.87415400,57.71250153,62.98125076,30.15625000
5.89420900,57.65625000,63.53125000,30.95000076
5.91426300,57.11875153,63.45000076,32.36249924
5.93431700,57.04375076,64.04374695,32.54999924
5.95437200,56.58750153,64.47499847,34.34375000
5.97442600,55.96250153,65.01875305,36.38124847
5.99448000,55.31250000,65.50624847,37.79999924
6.01453600,55.00624847,65.51249695,38.36875153
6.03459500,54.34375000,65.64375305,40.29375076
6.05465000,53.49375153,66.50000000,41.38750076
6.07470300,52.14374924,66.83125305,43.49375153
6.09475800,50.99375153,67.27500153,45.23125076
6.11481300,49.96250153,67.47499847,46.91875076
6.13486800,48.86875153,68.09375000,48.33124924
6.15492200,46.86249924,68.01249695,50.05625153
6.17497700,45.63124847,68.31874847,52.33750153
6.19503200,44.06874847,68.55000305,53.95000076
6.21508600,42.45000076,69.07499695,54.62500000
6.23514000,41.18750000,68.90625000,56.69374847
6.25519400,39.28749847,69.32499695,58.25624847
6.27524800,37.20000076,69.40000153,58.84999847
6.29530500,35.28749847,69.58750153,60.23749924
6.31535900,33.41875076,69.62500000,61.65625000
6.33541300,31.71249962,69.92500305,62.84375000
6.35546800,30.43124962,69.87500000,63.43750000
6.37552300,29.03125000,69.91249847,63.78749847
6.39557700,27.29375076,69.57499695,64.36250305
6.41563100,25.66875076,69.29374695,65.41249847
6.43568500,23.75625038,69.14375305,65.57499695
6.45575400,21.86249924,69.08750153,66.35624695
6.47582200,19.95624924,69.23124695,66.69999695
6.49588600,18.18124962,68.96250153,66.58750153
6.51594100,16.75625038,68.77500153,67.13749695
6.53599700,14.89999962,68.38124847,67.19374847
6.55605300,13.70625019,68.17500305,67.33125305
6.57610800,12.27499962,67.58750153,66.50624847
6.59616300,10.61250019,68.18125153,67.30625153
6.61621700,9.46249962,68.30000305,67.31874847
6.63627100,7.70625019,68.09375000,67.98750305
6.65632400,6.01875019,67.66249847,67.84375000
6.67637900,6.01875019,67.66249847,67.84375000
6.69643300,1.58124995,66.96250153,67.15000153
6.71648700,0.60000002,66.92500305,66.65625000
6.73654100,-0.45625001,66.63749695,66.54374695
6.75659500,-1.60625005,66.84375000,65.95625305
6.77664900,-2.74375010,66.86875153,65.59375000
6.79670300,-3.76250005,66.66249847,64.97499847
6.81675800,-4.91874981,66.78749847,64.52500153
6.83681200,-5.88124990,67.10624695,64.25624847
6.85687300,-6.46875000,67.08125305,64.00624847
6.87694200,-7.36250019,67.04374695,63.38124847
6.89699700,-7.73750019,67.07499695,62.92499924
6.91705100,-8.30624962,67.16874695,63.03125000
6.93710500,-8.68124962,67.25000000,62.81250000
6.95715900,-9.28125000,67.27500153,62.76250076
6.97721400,-9.68750000,67.59375000,62.55625153
6.99726900,-9.71875000,67.63749695,62.41249847
7.01732600,-10.06875038,67.80625153,62.10625076
7.03738400,-10.13749981,67.98124695,61.69374847
7.05743800,-10.26249981,68.19999695,61.78749847
7.07749200,-10.21875000,68.43125153,61.28125000
7.09754700,-10.12500000,68.51249695,61.32500076
7.11761400,-10.03750038,68.83750153,61.81874847
7.13766900,-9.61250019,68.80000305,61.53749847
7.15772600,-9.45625019,68.90625000,61.28125000
7.17778100,-9.33125019,69.00000000,61.35625076
7.19783600,-9.88125038,68.73750305,61.29375076
7.21789000,-9.32499981,68.91874695,61.73125076
7.23794400,-9.30000019,69.26875305,61.53125000
7.25800000,-8.68124962,69.26875305,61.09999847
7.27805400,-8.58749962,69.09999847,61.78749847
7.29811300,-8.16874981,68.80625153,61.33124924
7.31816700,-7.99375010,68.81874847,61.51250076
7.34118000,-7.25624990,69.81250000,62.16875076
7.36518000,-6.35624981,69.86875153,62.58750153
7.38523400,-5.16249990,69.92500305,62.89374924
7.40528800,-4.26875019,70.07499695,62.86249924
7.42534200,-4.07499981,69.96250153,63.37500000
7.44539600,-3.89374995,70.18750000,63.51874924
7.46545100,-4.15000010,69.96250153,63.00624847
7.48551400,-3.29375005,69.90625000,63.44374847
7.50558200,-2.63124990,69.94999695,64.09999847
7.52563900,-2.23749995,69.50000000,64.28125000
7.54569300,-2.35625005,69.95625305,63.94374847
7.56574800,-1.93124998,69.47499847,63.88124847
7.58582000,-1.73125005,69.35624695,64.21875000
7.60587500,-0.63125002,69.40625000,64.71875000
7.62592900,0.60000002,69.06250000,65.06874847
7.64598400,1.58749998,68.81874847,65.64375305
7.66604100,3.03125000,68.60624695,65.67500305
7.68609600,4.18125010,68.45625305,66.00624847
7.70615100,5.83750010,68.08125305,66.43125153
7.72620500,7.44374990,67.12500000,66.78749847
7.74626100,9.05624962,67.25000000,66.67500305
7.76631500,10.21875000,66.61875153,66.81250000
7.78636900,10.86250019,65.69374847,66.68125153
7.80642300,12.38749981,65.24375153,66.68125153
7.82647800,13.59375000,65.12500000,67.26875305
7.84653200,15.69999981,64.84999847,67.56250000
7.86658900,17.77499962,64.00000000,67.68125153
7.88665200,19.74374962,63.43125153,67.20625305
7.90670700,23.82500076,62.75000000,66.27500153
7.92677100,25.85000038,62.13124847,65.67500305
7.94682600,27.85625076,61.41875076,65.23124695
7.96688100,29.38750076,60.56250000,64.90625000
7.98693500,30.63750076,60.48125076,63.59375000
8.00699200,32.22499847,60.34375000,63.00000000
8.02704900,33.26250076,60.17499924,62.48125076
8.05402500,35.15000153,59.58124924,61.59999847
8.07408100,36.82500076,58.82500076,60.79999924
8.09413800,38.81874847,58.40000153,59.03125000
8.11419200,40.43125153,58.53749847,58.12500000
8.13424800,41.93750000,58.29999924,57.03749847
8.15430400,43.29375076,58.29999924,55.66249847
8.17436100,44.50624847,58.25624847,54.38750076
8.19441600,45.73749924,58.46250153,53.38750076
8.21447800,47.00000000,58.50000000,51.06250000
8.23454200,48.22499847,58.01874924,50.01250076
8.25460900,49.36249924,58.13750076,48.90000153
8.27467400,50.23749924,58.16875076,47.36875153
8.29473100,51.14374924,58.59999847,46.10625076
8.31478600,52.17499924,58.92499924,44.73749924
8.33484300,53.23125076,58.99375153,43.60625076
8.35489800,53.52500153,58.92499924,42.59375000
8.37495100,53.52500153,58.92499924,42.59375000
8.39500500,55.21250153,59.62500000,38.98125076
8.41505800,55.56250000,59.78125000,37.43750000
8.43511100,56.08124924,60.31250000,36.66875076
8.45516800,56.59375000,60.71250153,36.09375000
8.47522200,57.09375000,61.15000153,34.98749924
8.49527600,56.85625076,61.25000000,33.98125076
8.51534000,57.27500153,61.68750000,33.59999847
